------- ELASTODYN V1.00.* INDIVIDUAL BLADE INPUT FILE --------------------------
Optimus 17-255 on IEA-15-240 monopile foundation
---------------------- BLADE PARAMETERS ----------------------------------------
18                     NBlInpSt    - Number of blade input stations (-)
0.48                   BldFlDmp1   - Blade flap mode #1 structural damping in percent of critical (%)
0.48                   BldFlDmp2   - Blade flap mode #2 structural damping in percent of critical (%)
0.48                   BldEdDmp1   - Blade edge mode #1 structural damping in percent of critical (%)
---------------------- BLADE ADJUSTMENT FACTORS --------------------------------
1.0                    FlStTunr1   - Blade flapwise modal stiffness tuner, 1st mode (-)
1.0                    FlStTunr2   - Blade flapwise modal stiffness tuner, 2nd mode (-)
1.19946289             AdjBlMs     - Factor to adjust blade mass density (-)
1.35408115             AdjFlSt     - Factor to adjust blade flap stiffness (-)
1.35408115             AdjEdSt     - Factor to adjust blade edge stiffness (-)
---------------------- DISTRIBUTED BLADE PROPERTIES ----------------------------
    BlFract      PitchAxis      StrcTwst       BMassDen        FlpStff        EdgStff
      (-)           (-)          (deg)          (kg/m)         (Nm^2)         (Nm^2)
 0.000000000000000E+00  5.045454545454545e-01  1.559455301971170E+01  3.189145281139312e+03  1.525338961805330e+11  1.524792338826398e+11
 2.002821462573920E-02  4.900186808012221e-01  1.559105026258910E+01  2.848491671981893e+03  1.388018747118786e+11  1.376398889340311e+11
 8.011285850295700E-02  4.727001828454839e-01  1.432634822487340E+01  1.774273076643545e+03  1.222825651460343e+11  1.231043838261023e+11
 1.502116096930440E-01  4.540147730610375e-01  1.103234816008370E+01  1.126877435288510e+03  9.721429241691763e+10  1.030038838221780e+11
 2.073943556154750E-01  4.346477825919650e-01  8.429191400183100E+00  6.498201551435592e+02  7.473181210448022e+10  8.415417285570142e+10
 2.455161861609350E-01  4.156278851950606e-01  7.182857515799280E+00  5.816598121783463e+02  5.670713863723486e+10  7.500334758775418e+10
 2.874120236697080E-01  3.979378721273935e-01  5.894924818046040E+00  4.927842041149214e+02  4.333119910067368e+10  6.386874980164800e+10
 3.293078611089880E-01  3.812996074561740e-01  4.734414845306510E+00  4.822296506379602e+02  3.488129485677473e+10  5.587550052530811e+10
 3.956024907399040E-01  3.654920515699109e-01  3.306964914851220E+00  4.508379097619292e+02  3.074062953585106e+10  4.850443135202483e+10
 4.397989104706840E-01  3.516078083447283e-01  2.560996870560170E+00  4.326008561862743e+02  2.769326286737285e+10  4.229417836732529e+10
 4.792513130920030E-01  3.400844312876912e-01  1.980294361351270E+00  4.112534584982077e+02  2.461968089847847e+10  3.778979262471266e+10
 5.384299169544880E-01  3.310670675965599e-01  1.215577810449390E+00  3.826675398780939e+02  2.139033204354521e+10  3.460539129185500e+10
 5.787011487383340E-01  3.241031342163746e-01  7.751078711077930E-01  3.612661153435752e+02  1.869243518353476e+10  3.222839700500914e+10
 6.391079964141020E-01  3.188472934612394e-01  1.860255794725150E-01  2.941148966103120e+02  1.631285343544707e+10  3.032117609748821e+10
 7.155220414602110E-01  3.146895762675238e-01  -6.83468685439567E-01  2.221564960620647e+02  1.479141128967237e+10  2.866882577015823e+10
 7.728325753837810E-01  3.114888979953550e-01  -1.57511808381842E+00  1.576606284996616e+02  1.408157287855375e+10  2.719211554338738e+10
 9.137872922993530E-01  3.088429219529899e-01  -2.04889634563165E+00  4.450335078883321e+01  1.340519691354671e+10  2.562551820076299e+10
 1.000000000000000E+00  3.066054031112312e-01  -1.24238770627297E+00  5.767382468564499e+00  1.213013620583955e+10  2.406788400839622e+10
---------------------- BLADE MODE SHAPES ---------------------------------------
-0.0752915102669993    BldFl1Sh(2) - Flap mode 1, coeff of x^2
2.826459690437861      BldFl1Sh(3) -            , coeff of x^3
-3.2702836497367604    BldFl1Sh(4) -            , coeff of x^4
2.252110669909933      BldFl1Sh(5) -            , coeff of x^5
-0.7329952003440339    BldFl1Sh(6) -            , coeff of x^6
-0.5285519130664843    BldFl2Sh(2) - Flap mode 2, coeff of x^2
0.7090455925619575     BldFl2Sh(3) -            , coeff of x^3
-7.795036256009813     BldFl2Sh(4) -            , coeff of x^4
15.797380956455061     BldFl2Sh(5) -            , coeff of x^5
-7.182838379940722     BldFl2Sh(6) -            , coeff of x^6
-0.02913195484596477   BldEdgSh(2) - Edge mode 1, coeff of x^2
5.270503361982258      BldEdgSh(3) -            , coeff of x^3
-11.024746168421133    BldEdgSh(4) -            , coeff of x^4
10.34151438983642      BldEdgSh(5) -            , coeff of x^5
-3.5581396285515794    BldEdgSh(6) -            , coeff of x^6